VAMAS Surface Chemical Analysis Standard Data Transfer Format 1988 May 4
Not Specified
Kratos Axis Ultra
Not Specified
/C=/data/mark/june10/crplating2.dset
3
Casa Info Follows CasaXPS Version 2.3.27PR1.7
0
SourceAnalyserAngle: Not Specified
MAP
REGULAR
4
1
32768
32768
1
Etch Time
s
0
0
0
0
4
Cr Plating
Not Specified
2010
6
25
15
53
29
0
46
Casa Info Follows
1
Calib M = 281.55 A = 284.8 BE ADD
15
annot regions ExArea ExFWHM Display 0.0627329 0.544968 RGB(0,0,0)   Font(53,18,400,0,Times New Roman)

annot text peak Data 1205.14 23793 RGB(0,0,0)   Font(35,18,0,0,Times New Roman) Vertical
C 1s
annot text peak Data 505 37786 RGB(0,0,0)   Font(35,18,0,0,Times New Roman) Vertical
O KLL
annot text peak Data 959.44 37397 RGB(0,0,0)   Font(35,18,0,0,Times New Roman) Vertical
O 1s
annot text peak Data 491.84 44044 RGB(0,0,0)   Font(35,18,0,0,Times New Roman) Vertical
Cr LMM b
annot text peak Data 531.74 37312 RGB(0,0,0)   Font(35,18,0,0,Times New Roman) Vertical
Cr LMM a
annot text peak Data 792.84 45661 RGB(0,0,0)   Font(35,18,0,0,Times New Roman) Vertical
Cr 2s
annot text peak Data 915.34 48295 RGB(0,0,0)   Font(35,18,0,0,Times New Roman) Vertical
Cr 2p
annot text peak Data 1415.84 9025 RGB(0,0,0)   Font(35,18,0,0,Times New Roman) Vertical
Cr 3s
annot text peak Data 1447.34 11132 RGB(0,0,0)   Font(35,18,0,0,Times New Roman) Vertical
Cr 3p
annot text peak Data 419.04 41367 RGB(0,0,0)   Font(35,18,0,0,Times New Roman) Vertical
Na 1s
annot text peak Data 986 5245 RGB(0,0,0)   Font(35,18,0,0,Times New Roman) Vertical
Na KLL
annot text peak Data 1257.64 7070 RGB(0,0,0)   Font(35,18,0,0,Times New Roman) Vertical
S 2s
annot text peak Data 1321.34 7777 RGB(0,0,0)   Font(35,18,0,0,Times New Roman) Vertical
S 2p
annot text peak Data 1089.89 5569 RGB(0,0,0)   Font(35,18,0,0,Times New Roman) Vertical
N 1s
6
CASA region (*C 1s*) (*Shirley*) 1195.4256 1207.84 0.278 1 0 0 299 542 275 9.3 (*C 1s*) 12.011 0 0
CASA region (*O 1s*) (*Shirley*) 949.40708 960.74 0.78 1 0 0 299 542 275 9.3 (*O 1s*) 15.9994 0 0
CASA region (*Cr 2p*) (*Shirley*) 894.30023 918.27843 2.427 1 0 0 299 542 275 9.3 (*Cr 2p*) 51.9957 0 0
CASA region (*Na 1s*) (*Shirley*) 412.67675 418.94 1.685 1 0 0 299 542 275 9.3 (*Na 1s*) 22.9898 0 0
CASA region (*S 2p*) (*Shirley*) 1314.5639 1320.54 0.668 1 0 0 299 542 275 9.3 (*S 2p*) 32.0648 0 0
CASA region (*N 1s*) (*Shirley*) 1081.2992 1092.1772 0.477 1 0 0 299 542 275 9.3 (*N 1s*) 14.0067 0 0
0
   Lens Mode:Field of View 1: Survey   Resolution:Pass energy 160   Iris(Aperture):slot(SPECTRUM SLIT)
   Anode:Mono(Al (Mono))(210 W)   Step(meV): 700.0    Dwell(ms): 76         Sweeps: 5        Acqn. Time(s): 600     
   Acquired On :10/06/25 15:53:29   C/N :On
   
XPS
16384
16384
0
Mono(Al (Mono))
1486.69
210
1e+37
1e+37
1000
1000
1e+37
1e+37
FAT
160
1e+37
-4.43
0
1e+37
1e+37
1e+37
1e+37
Wide
None
-1
Kinetic Energy
eV
386.14
0.7
2
Intensity
d
Transmission
d
pulse counting
0.0762873
5
0
1e+37
1e+37
1e+37
1
MFP Exponent
d
0
3148
655
48999
2.67244
4.85523
36391
2.67244
36243
2.67339
36272
2.67434
36117
2.67529
36377
2.67624
36525
2.6772
36547
2.67815
36958
2.6791
36874
2.68005
36993
2.681
37225
2.68195
37375
2.6829
37120
2.68385
37265
2.6848
37344
2.68575
37735
2.68671
37701
2.68766
37803
2.68861
37710
2.68956
37762
2.69051
38000
2.69146
38164
2.69241
38248
2.69336
38126
2.69431
38142
2.69526
38318
2.69621
38510
2.69717
38079
2.69812
38331
2.69907
38230
2.70002
38420
2.70097
38466
2.70192
38577
2.70287
38954
2.70382
38867
2.70477
38589
2.70572
38730
2.70668
38681
2.70763
39046
2.70858
38878
2.70953
39021
2.71048
38985
2.71143
39233
2.71238
39062
2.71333
39286
2.71428
39828
2.71523
40753
2.71619
41367
2.71714
40782
2.71809
40370
2.71904
40183
2.71999
39984
2.72094
39991
2.72189
40057
2.72284
40204
2.72379
40252
2.72474
40277
2.72569
40357
2.72665
40429
2.7276
40540
2.72855
40505
2.7295
40477
2.73045
40548
2.7314
40896
2.73235
41027
2.7333
40737
2.73425
41097
2.7352
40915
2.73616
40955
2.73711
40866
2.73806
40918
2.73901
41250
2.73996
41157
2.74091
41397
2.74186
41038
2.74281
41200
2.74376
41006
2.74471
41059
2.74567
41311
2.74662
41318
2.74757
41317
2.74852
41649
2.74947
41823
2.75042
41826
2.75137
41677
2.75232
41910
2.75327
41849
2.75422
41918
2.75518
42493
2.75613
42628
2.75708
42314
2.75803
42437
2.75898
42678
2.75993
42814
2.76088
42617
2.76183
42540
2.76278
42838
2.76373
42494
2.76468
42461
2.76564
42452
2.76659
42304
2.76776
42317
2.77012
42817
2.77249
42658
2.77485
42693
2.77722
42752
2.77958
42893
2.78195
42904
2.78431
42961
2.78667
43307
2.78904
43093
2.7914
43190
2.79377
43129
2.79613
42982
2.7985
42407
2.80086
42727
2.80322
42962
2.80559
42442
2.80795
42724
2.81032
42847
2.81268
42658
2.81505
42236
2.81741
42658
2.81977
43101
2.82214
43251
2.8245
43039
2.82687
43310
2.82923
43292
2.83159
43578
2.83396
43348
2.83632
43450
2.83869
43657
2.84105
43999
2.84342
43708
2.84578
43427
2.84814
43562
2.85051
43583
2.85287
43435
2.85524
43368
2.8576
43562
2.85997
43426
2.86233
43305
2.86469
43297
2.86706
43389
2.86942
43652
2.87179
43326
2.87415
43259
2.87652
43093
2.87888
43012
2.88124
43434
2.88361
43504
2.88597
44044
2.88834
43706
2.8907
43555
2.89307
43028
2.89543
42647
2.89779
41866
2.90016
40985
2.90252
40392
2.90489
39890
2.90725
39420
2.90962
39016
2.91198
38486
2.91434
38457
2.91671
38434
2.91907
38611
2.92144
37916
2.9238
38053
2.92617
37695
2.92853
37786
2.93089
37505
2.93326
37415
2.93562
37453
2.93799
37219
2.94035
37146
2.94272
37044
2.94508
37463
2.94744
37828
2.94981
38227
2.95217
38498
2.95454
38736
2.9569
39460
2.95926
40375
2.96163
41268
2.96399
41556
2.96636
42229
2.96872
41793
2.97109
41210
2.97345
40116
2.97581
38857
2.97818
38105
2.98054
37575
2.98291
36809
2.98527
36296
2.98764
35836
2.99
35751
2.99236
35405
2.99473
35202
2.99709
35489
2.99946
35447
3.00182
35202
3.00419
35670
3.00655
35897
3.00891
36003
3.01128
36282
3.01364
36649
3.01601
36908
3.01837
37101
3.02074
37312
3.0231
37132
3.02546
36630
3.02783
36363
3.03019
35338
3.03256
34685
3.03492
34047
3.03729
33126
3.03965
32393
3.04201
31893
3.04438
31562
3.04674
31689
3.04911
31524
3.05147
31448
3.05384
31128
3.0562
31348
3.05856
30898
3.06093
30799
3.06329
30843
3.06566
31012
3.06802
31066
3.07039
31050
3.07275
31079
3.07511
30942
3.07748
31044
3.07984
31121
3.08221
31163
3.08457
31058
3.08694
31235
3.0893
31295
3.09166
31095
3.09403
31048
3.09639
31239
3.09876
31144
3.10112
31278
3.10349
31317
3.10585
31436
3.10821
31292
3.11058
31305
3.11294
31113
3.11531
31317
3.11767
31197
3.12003
31451
3.1224
31417
3.12476
31245
3.12713
31378
3.12949
31500
3.13186
31924
3.13422
31827
3.13658
31750
3.13895
31756
3.14131
31937
3.14368
32202
3.14604
32262
3.14841
32571
3.15077
32505
3.15313
32501
3.1555
32745
3.15786
32873
3.16023
32929
3.16259
33204
3.16496
33261
3.16732
33293
3.16968
33183
3.17205
33123
3.17441
33203
3.17678
32857
3.17914
32976
3.18151
33017
3.18387
32720
3.18623
32551
3.1886
32567
3.19096
32555
3.19333
32607
3.19569
32344
3.19806
32549
3.20042
32647
3.20278
32553
3.20515
32473
3.20751
32280
3.20988
32331
3.21224
32220
3.21461
32247
3.21697
32068
3.21933
32135
3.2217
32254
3.22406
32560
3.22643
32326
3.22879
32571
3.23116
32617
3.23352
32533
3.23588
32664
3.23825
32924
3.24061
32737
3.24298
32765
3.24534
32602
3.24771
32931
3.25007
32943
3.25243
33195
3.2548
33122
3.25716
32690
3.25953
32945
3.26189
33193
3.26426
33313
3.26662
33194
3.26898
33132
3.27135
33336
3.27371
33212
3.27608
33206
3.27844
33131
3.2808
33147
3.28317
33443
3.28553
33490
3.2879
33300
3.29026
33523
3.29263
33379
3.29499
33763
3.29735
33705
3.29972
33552
3.30208
33926
3.30445
33946
3.30681
33899
3.30918
33825
3.31154
33918
3.3139
34108
3.31627
33828
3.31863
34022
3.321
34095
3.32336
34282
3.32573
34215
3.32809
34235
3.33045
34647
3.33282
34519
3.33518
34105
3.33755
34579
3.33991
34701
3.34228
34619
3.34464
34544
3.347
34651
3.34937
34805
3.35173
34805
3.3541
34572
3.35646
34878
3.35883
34982
3.36119
35217
3.36355
35170
3.36592
35126
3.36828
35007
3.37065
35016
3.37301
35175
3.37538
34891
3.37774
35361
3.3801
35423
3.38247
35578
3.38483
35608
3.3872
35823
3.38956
35572
3.39193
35495
3.39429
35587
3.39665
35857
3.39902
35941
3.40138
36178
3.40375
36186
3.40611
36022
3.40848
36307
3.41084
36300
3.4132
36270
3.41557
36083
3.41793
36033
3.4203
36439
3.42266
36402
3.42502
36435
3.42739
36383
3.42975
36453
3.43212
36606
3.43448
36764
3.43685
36781
3.43921
36414
3.44157
36712
3.44394
36869
3.4463
36784
3.44867
36862
3.45103
36786
3.4534
36828
3.45576
37075
3.45812
37112
3.46049
36926
3.46285
36946
3.46522
36958
3.46758
37168
3.46995
37591
3.47231
37269
3.47455
37194
3.47675
37068
3.47894
37165
3.48114
37764
3.48333
37617
3.48553
37637
3.48772
37885
3.48992
37664
3.49211
37538
3.49431
37769
3.4965
38210
3.4987
38089
3.50089
37760
3.50309
37942
3.50528
38491
3.50748
38248
3.50967
38153
3.51187
38076
3.51406
38259
3.51626
38206
3.51845
38247
3.52065
38434
3.52284
38470
3.52504
38690
3.52724
38712
3.52943
38729
3.53163
38612
3.53382
38777
3.53602
39015
3.53821
38913
3.54041
38835
3.5426
39169
3.5448
39081
3.54699
39217
3.54919
39203
3.55138
39421
3.55358
39442
3.55577
39177
3.55797
39171
3.56016
39533
3.56236
39500
3.56455
39493
3.56675
39521
3.56894
39725
3.57114
39617
3.57333
39626
3.57553
39646
3.57772
39933
3.57992
39735
3.58211
39701
3.58431
39573
3.5865
40044
3.5887
39966
3.59089
40110
3.59309
40186
3.59528
40221
3.59748
40118
3.59967
40461
3.60187
40548
3.60406
40400
3.60626
40450
3.60845
40609
3.61065
40555
3.61284
40305
3.61504
40575
3.61723
40446
3.61943
40666
3.62162
40779
3.62382
40699
3.62601
40757
3.62821
40738
3.63041
40631
3.6326
40869
3.6348
41121
3.63699
41497
3.63919
40985
3.64138
40927
3.64358
41239
3.64577
41241
3.64797
41158
3.65016
41177
3.65236
41133
3.65455
41202
3.65675
41382
3.65894
41661
3.66114
41491
3.66333
41507
3.66553
41326
3.66772
41614
3.66992
41933
3.67211
41548
3.67431
41497
3.6765
41771
3.6787
41715
3.68089
41764
3.68309
42038
3.68528
41691
3.68748
41669
3.68967
41997
3.69187
42233
3.69406
41817
3.69626
41792
3.69845
42042
3.70065
42511
3.70284
42433
3.70504
42470
3.70723
42301
3.70943
42541
3.71162
42601
3.71382
42362
3.71601
42504
3.71821
42568
3.7204
42422
3.7226
42915
3.72479
42650
3.72699
42548
3.72919
42393
3.73138
42434
3.73358
42630
3.73577
42753
3.73797
42574
3.74016
42780
3.74236
42828
3.74455
42704
3.74675
42716
3.74894
42949
3.75114
43039
3.75333
42768
3.75553
42908
3.75772
42913
3.75992
43006
3.76211
43437
3.76431
42913
3.7665
43109
3.7687
43143
3.77089
43184
3.77309
43149
3.77528
43536
3.77748
43563
3.77967
43390
3.78187
43460
3.78406
43437
3.78626
43770
3.78845
43831
3.79065
43729
3.79284
43699
3.79504
43541
3.79723
43788
3.79943
43802
3.80162
43919
3.80382
43745
3.80601
43556
3.80821
43784
3.8104
43423
3.8126
43649
3.81479
43401
3.81699
43304
3.81918
43074
3.82138
43328
3.82358
43374
3.82577
43721
3.82797
43611
3.83016
43570
3.83236
43109
3.83455
43194
3.83675
43575
3.83894
43320
3.84114
43521
3.84333
43510
3.84553
42894
3.84772
42986
3.84992
43236
3.85211
42857
3.85431
43056
3.8565
43274
3.8587
43834
3.86089
43990
3.86309
44380
3.86528
45040
3.86748
44993
3.86967
45202
3.87187
45661
3.87406
45159
3.87626
44781
3.87845
44652
3.88065
43960
3.88284
43100
3.88504
42176
3.88723
41580
3.88943
40884
3.89162
40612
3.89382
40344
3.89601
39627
3.89821
39310
3.9004
39390
3.9026
39287
3.90479
39187
3.90699
38838
3.90918
38485
3.91138
38953
3.91357
38867
3.91577
38572
3.91796
38681
3.92016
38583
3.92235
38435
3.92455
38514
3.92675
38669
3.92894
38784
3.93114
38453
3.93333
38310
3.93553
38664
3.93772
38689
3.93992
38666
3.94211
38414
3.94431
38564
3.9465
38883
3.9487
39035
3.95089
38751
3.95309
38661
3.95528
38758
3.95748
38842
3.95967
38651
3.96187
38556
3.96406
38672
3.96626
38854
3.96845
38519
3.97065
38803
3.97284
38883
3.97504
38895
3.97723
38992
3.97943
38710
3.98162
38658
3.98382
38909
3.98601
39183
3.98821
39017
3.9904
39131
3.9926
39098
3.99479
38901
3.99699
39215
3.99918
38693
4.00138
38703
4.00357
38663
4.00577
39228
4.00796
39046
4.01016
38948
4.01235
39010
4.01455
39064
4.01674
38954
4.01894
39271
4.02113
39024
4.02333
39147
4.02553
39201
4.02772
39104
4.02992
39241
4.03211
39023
4.03431
39032
4.0365
38891
4.0387
38845
4.04089
38805
4.04309
38919
4.04528
39460
4.04748
39328
4.04967
39282
4.05187
39112
4.05406
39066
4.05626
39191
4.05845
38930
4.06065
39091
4.06284
39173
4.06504
39066
4.06723
39200
4.06943
39122
4.07162
39169
4.07382
39232
4.07601
39245
4.07821
39335
4.0804
39007
4.0826
38862
4.08479
38964
4.08699
39306
4.08918
39149
4.09138
38767
4.09357
38816
4.09577
38758
4.09796
38624
4.10016
38704
4.10235
38474
4.10455
38462
4.10674
38369
4.10894
38601
4.11113
38449
4.11333
38499
4.11552
38442
4.11772
38286
4.11992
37991
4.12211
37850
4.12431
38102
4.1265
38104
4.1287
38064
4.13089
38353
4.13309
38252
4.13528
38659
4.13748
38479
4.13967
38648
4.14187
38785
4.14406
38674
4.14626
38581
4.14845
38704
4.15065
38748
4.15284
39032
4.15504
39065
4.15723
39052
4.15943
38698
4.16162
38662
4.16382
38589
4.16601
38656
4.16821
38653
4.16642
38387
4.16372
38439
4.16102
38446
4.15832
38434
4.15562
38622
4.15292
38562
4.15022
38268
4.14752
38290
4.14482
37735
4.14212
37064
4.13942
36562
4.13672
35682
4.13402
34720
4.13132
33661
4.12862
33137
4.12592
33231
4.12322
33321
4.12052
33595
4.11782
34162
4.11512
35328
4.11242
37502
4.10972
39817
4.10702
42296
4.10432
43696
4.10162
43173
4.09892
41571
4.09622
41312
4.09352
40172
4.09082
36192
4.08812
31275
4.08542
27837
4.08272
27061
4.08002
27653
4.07732
29667
4.07462
33566
4.07192
39349
4.06922
45752
4.06652
48999
4.06382
48634
4.06112
48295
4.05842
45956
4.05572
36851
4.05302
24275
4.05032
15230
4.04762
12386
4.04491
11535
4.04221
11238
4.03951
11056
4.03681
10931
4.03411
10696
4.03141
10687
4.02871
10646
4.02601
10617
4.02331
10499
4.02061
10461
4.01791
10456
4.01521
10560
4.01251
10361
4.00981
10477
4.00711
10642
4.00441
10596
4.00171
10712
3.99901
10763
3.99631
10701
3.99361
10942
3.99091
11040
3.98821
11101
3.98551
11063
3.98281
11010
3.98011
10953
3.97741
11001
3.97471
10842
3.97201
10827
3.96931
10754
3.96661
10614
3.96391
10414
3.96121
10403
3.95851
10472
3.95581
10342
3.95311
10387
3.95041
10312
3.94771
10225
3.94501
9941
3.94231
9517
3.93961
9118
3.93691
8928
3.93421
8755
3.93151
8523
3.92881
8312
3.92611
8101
3.92341
7815
3.92071
7600
3.91801
7482
3.91531
7430
3.91261
7508
3.90991
7769
3.90721
7979
3.90451
8846
3.9018
11394
3.8991
16084
3.8964
23415
3.8937
31578
3.891
37397
3.8883
35974
3.8856
26837
3.8829
15970
3.8802
9046
3.8775
6422
3.8748
5861
3.8721
5729
3.8694
5684
3.8667
5584
3.864
5557
3.8613
5462
3.8586
5312
3.8559
5295
3.8532
5396
3.8505
5259
3.8478
5237
3.8451
5139
3.8424
5300
3.8397
5366
3.837
5294
3.8343
5191
3.8316
5355
3.8289
5305
3.8262
5148
3.8235
5278
3.8208
5203
3.8181
5168
3.8154
5245
3.8127
5173
3.81
5259
3.8073
5216
3.8046
5171
3.8019
5185
3.7992
5250
3.7965
5293
3.7938
5272
3.7911
5245
3.7884
5256
3.7857
5298
3.783
5320
3.7803
5327
3.7776
5304
3.7749
5324
3.7722
5316
3.7695
5459
3.7668
5517
3.7641
5749
3.76139
5900
3.75869
5916
3.75599
5792
3.75329
5518
3.75059
5386
3.74789
5374
3.74519
5211
3.74249
5163
3.73979
5153
3.73709
5143
3.73439
5223
3.73169
5149
3.72899
5136
3.72629
5216
3.72359
5111
3.72089
5189
3.71819
5204
3.71549
5070
3.71279
5147
3.71009
5198
3.70739
5222
3.70469
5291
3.70199
5161
3.69929
5186
3.69659
5255
3.69389
5117
3.69119
5192
3.68849
5154
3.68579
5184
3.68309
5158
3.68039
5207
3.67769
5165
3.67499
5106
3.67229
5169
3.66959
5227
3.66689
5179
3.66419
5156
3.66149
5139
3.65879
5163
3.65609
5268
3.65339
5073
3.65069
5219
3.64799
5254
3.64529
5221
3.64259
5256
3.63989
5235
3.63719
5207
3.63449
5072
3.63179
5228
3.62909
5219
3.62639
5271
3.62369
5141
3.62099
5247
3.61828
5221
3.61558
5281
3.61288
5206
3.61018
5265
3.60748
5159
3.60478
5290
3.60208
5303
3.59938
5395
3.59697
5362
3.59866
5264
3.60036
5221
3.60205
5244
3.60375
5163
3.60544
5230
3.60714
5217
3.60884
5225
3.61053
5295
3.61223
5393
3.61392
5336
3.61562
5300
3.61731
5267
3.61901
5271
3.6207
5363
3.6224
5303
3.6241
5281
3.62579
5303
3.62749
5304
3.62918
5235
3.63088
5333
3.63257
5347
3.63427
5338
3.63597
5387
3.63766
5331
3.63936
5379
3.64105
5304
3.64275
5276
3.64444
5384
3.64614
5374
3.64783
5460
3.64953
5332
3.65123
5302
3.65292
5310
3.65462
5304
3.65631
5299
3.65801
5315
3.6597
5303
3.6614
5312
3.6631
5383
3.66479
5365
3.66649
5344
3.66818
5252
3.66988
5314
3.67157
5456
3.67327
5358
3.67496
5308
3.67666
5306
3.67836
5318
3.68005
5276
3.68175
5378
3.68344
5445
3.68514
5420
3.68683
5382
3.68853
5391
3.69023
5407
3.69192
5360
3.69362
5405
3.69531
5272
3.69701
5263
3.6987
5379
3.7004
5398
3.70209
5357
3.70379
5406
3.70549
5356
3.70718
5414
3.70888
5512
3.71057
5364
3.71227
5449
3.71396
5516
3.71566
5420
3.71736
5444
3.71905
5494
3.72075
5529
3.72244
5547
3.72414
5590
3.72583
5607
3.72753
5776
3.72922
5788
3.73092
5850
3.73262
5680
3.73431
5654
3.73601
5569
3.7377
5668
3.7394
5563
3.74109
5519
3.74279
5524
3.74449
5485
3.74618
5529
3.74788
5593
3.74957
5428
3.75127
5539
3.75296
5476
3.75466
5458
3.75635
5468
3.75805
5427
3.75975
5533
3.76144
5503
3.76314
5596
3.76483
5545
3.76653
5558
3.76822
5578
3.76992
5615
3.77162
5599
3.77331
5573
3.77501
5645
3.7767
5714
3.7784
5673
3.78009
5486
3.78179
5576
3.78348
5583
3.78518
5610
3.78688
5685
3.78857
5679
3.79027
5585
3.79196
5614
3.79366
5629
3.79535
5693
3.79705
5540
3.79875
5646
3.80044
5716
3.80214
5668
3.80383
5631
3.80553
5598
3.80722
5643
3.80892
5731
3.81061
5666
3.81231
5736
3.81401
5853
3.8157
5755
3.8174
5880
3.81909
5921
3.82079
5906
3.82248
5727
3.82418
5881
3.82588
5941
3.82757
5945
3.82927
6002
3.83096
6011
3.83266
6039
3.83435
6040
3.83605
6018
3.83774
6097
3.83944
6101
3.84114
6126
3.84283
6098
3.84453
6306
3.84622
6488
3.84792
6354
3.84961
6276
3.85131
6328
3.85301
6340
3.8547
6509
3.8564
6554
3.85809
6389
3.85979
6481
3.86148
6441
3.86318
6393
3.86487
6429
3.86657
6551
3.86827
6589
3.86996
6580
3.87166
6634
3.87335
6627
3.87505
6536
3.87674
6680
3.87844
6779
3.88014
6636
3.88183
6729
3.88353
6828
3.88522
6799
3.88692
6779
3.88861
6889
3.89031
6935
3.892
6909
3.8937
6950
3.8954
7041
3.89709
7027
3.89879
6950
3.90048
7028
3.90218
7088
3.90387
7107
3.90557
7046
3.90727
7206
3.90896
7150
3.91066
7209
3.91235
7320
3.91405
7532
3.91574
7346
3.91744
7337
3.91913
7322
3.92083
7539
3.92253
7595
3.92422
7578
3.92592
7603
3.92761
7590
3.92931
7590
3.931
7586
3.9327
7627
3.9344
7663
3.93609
7696
3.93779
7816
3.93948
7793
3.94118
7870
3.94287
7845
3.94457
7853
3.94626
7833
3.94796
7900
3.94966
7966
3.95135
8081
3.95305
8170
3.95474
8320
3.95644
8245
3.95813
8232
3.95983
8170
3.96153
8046
3.96322
7940
3.96492
7950
3.96661
7684
3.96831
7641
3.97
7577
3.9717
7466
3.9734
7578
3.97509
7477
3.97679
7308
3.97848
7060
3.98018
7166
3.98187
7012
3.98357
6992
3.98526
6976
3.98696
7030
3.98866
6977
3.99035
6891
3.99205
6783
3.99374
6941
3.99544
7310
3.99713
7918
3.99883
8612
4.00052
9204
4.00222
10118
4.00392
13317
4.00561
19466
4.00731
23793
4.009
22115
4.0107
15810
4.01239
9590
4.01409
7140
4.01579
6759
4.01748
6601
4.01918
6557
4.02087
6496
4.02257
6461
4.02426
6321
4.02596
6428
4.02766
6376
4.02935
6243
4.03105
6207
4.03274
6392
4.03444
6347
4.03613
6347
4.03783
6491
4.03952
6344
4.04122
6354
4.04292
6381
4.04461
6489
4.04631
6242
4.048
6419
4.0497
6400
4.05139
6392
4.05309
6445
4.05479
6391
4.05648
6430
4.05818
6361
4.05987
6437
4.06157
6501
4.06326
6474
4.06496
6449
4.06665
6419
4.06835
6381
4.07005
6412
4.07174
6433
4.07344
6428
4.07513
6378
4.07683
6467
4.07852
6518
4.08022
6467
4.08191
6582
4.08361
6573
4.08463
6479
4.08564
6584
4.08666
6513
4.08768
6365
4.08869
6466
4.08971
6464
4.09073
6478
4.09174
6513
4.09276
6537
4.09377
6481
4.09479
6590
4.09581
6552
4.09682
6451
4.09784
6488
4.09886
6510
4.09987
6567
4.10089
6536
4.10191
6541
4.10292
6646
4.10394
6656
4.10496
6616
4.10597
6590
4.10699
6578
4.10801
6536
4.10902
6728
4.11004
6742
4.11105
6861
4.11207
6816
4.11309
7017
4.1141
7070
4.11512
6947
4.11614
6770
4.11715
6879
4.11817
6865
4.11919
6710
4.1202
6699
4.12122
6704
4.12223
6646
4.12325
6662
4.12427
6763
4.12528
6634
4.1263
6721
4.12732
6618
4.12833
6635
4.12935
6777
4.13037
6636
4.13138
6678
4.1324
6598
4.13342
6654
4.13443
6597
4.13545
6602
4.13647
6823
4.13748
6817
4.1385
6705
4.13951
6785
4.14053
6759
4.14155
6753
4.14256
6812
4.14358
6981
4.1446
6777
4.14561
6780
4.14663
6852
4.14765
6795
4.14866
6843
4.14968
6745
4.15069
6798
4.15171
6840
4.15273
6749
4.15374
6780
4.15476
6760
4.15578
6895
4.15679
6919
4.15781
6894
4.15883
6893
4.15984
6803
4.16086
6869
4.16188
6918
4.16289
6957
4.16391
6994
4.16493
7043
4.16594
7082
4.16696
6971
4.16797
6850
4.16899
7002
4.17001
6867
4.17102
6935
4.17204
6988
4.17306
7001
4.17407
6968
4.17509
6928
4.17611
6837
4.17712
6951
4.17814
6947
4.17915
7052
4.18017
6940
4.18119
6917
4.1822
6992
4.18322
7003
4.18424
7030
4.18525
7103
4.18627
7050
4.18729
6900
4.1883
6948
4.18932
7014
4.19034
6954
4.19135
7044
4.19237
6942
4.19338
6999
4.1944
7088
4.19542
6984
4.19643
6954
4.19745
6944
4.19847
6984
4.19948
6969
4.2005
7057
4.20152
6947
4.20253
6991
4.20355
7122
4.20457
7348
4.20558
7563
4.2066
7777
4.20761
7574
4.20863
7342
4.20965
7038
4.21066
7005
4.21168
6850
4.2127
7059
4.21371
7060
4.21473
7167
4.21575
7063
4.21676
7143
4.21778
7091
4.2188
7128
4.22077
7081
4.22411
7006
4.22745
7155
4.23079
7168
4.23413
7157
4.23747
7224
4.24081
7219
4.24415
7092
4.24749
7313
4.25082
7171
4.25416
7037
4.2575
7241
4.26084
7250
4.26418
7123
4.26752
7276
4.27086
7229
4.2742
7214
4.27754
7179
4.28088
7214
4.28421
7216
4.28755
7154
4.29089
7052
4.29423
7259
4.29757
7169
4.30091
7236
4.30425
7224
4.30759
7190
4.31093
7141
4.31427
7135
4.3176
7154
4.32094
7297
4.32428
7268
4.32762
7167
4.33096
7092
4.3343
7247
4.33764
7196
4.34098
7211
4.34432
7167
4.34766
7210
4.35099
7272
4.35433
7381
4.35767
7233
4.36101
7225
4.36435
7260
4.36769
7288
4.37103
7251
4.37437
7251
4.37771
7285
4.38104
7145
4.38438
7207
4.38772
7309
4.39106
7292
4.3944
7266
4.39774
7350
4.40108
7463
4.40442
7283
4.40776
7168
4.4111
7237
4.41443
7230
4.41777
7279
4.42111
7261
4.42445
7177
4.42779
7244
4.43113
7195
4.43447
7228
4.43781
7135
4.44115
7110
4.44449
7099
4.44782
7205
4.45116
7242
4.4545
7190
4.45784
7205
4.46118
7222
4.46452
7235
4.46786
7327
4.4712
7295
4.47454
7178
4.47788
7177
4.48121
7222
4.48455
7319
4.48789
7352
4.49123
7304
4.49457
7391
4.49791
7297
4.50125
7391
4.50459
7312
4.50793
7371
4.51126
7407
4.5146
7351
4.51794
7347
4.52128
7255
4.52462
7295
4.52796
7182
4.5313
7303
4.53464
7260
4.53798
7085
4.54132
7092
4.54465
7125
4.54799
7071
4.55133
6900
4.55467
6911
4.55801
6738
4.56135
6893
4.56469
6679
4.56803
6596
4.57137
6510
4.57471
6649
4.57804
6571
4.58138
6431
4.58472
6530
4.58806
6525
4.5914
6657
4.59474
6872
4.59808
6948
4.60142
7046
4.60476
7327
4.6081
7609
4.61143
7663
4.61477
7826
4.61811
8230
4.62145
8734
4.62479
9027
4.62813
9025
4.63147
8596
4.63481
7795
4.63815
7089
4.64148
6685
4.64482
6396
4.64816
6159
4.6515
6042
4.65484
6016
4.65818
5867
4.66152
5753
4.66486
5700
4.6682
5713
4.67154
5610
4.67487
5548
4.67821
5632
4.68155
5520
4.68489
5456
4.68823
5403
4.69157
5253
4.69491
5098
4.69825
5103
4.70159
5124
4.70493
5092
4.70826
5177
4.7116
5274
4.71494
5176
4.71828
5096
4.72162
5168
4.72496
5025
4.7283
5023
4.73164
4938
4.73498
4730
4.73832
4700
4.74165
4705
4.74499
4560
4.74833
4544
4.75167
4605
4.75501
4823
4.75835
5002
4.76169
5377
4.76503
6032
4.76837
7148
4.7717
8780
4.77504
10414
4.77838
11132
4.78172
10243
4.78506
7773
4.7884
4643
4.79174
2576
4.79508
1789
4.79842
1453
4.80176
1334
4.80509
1250
4.80843
1170
4.81177
1179
4.81511
1061
4.81845
1070
4.82179
1036
4.82513
1004
4.82847
1047
4.83181
1006
4.83514
1073
4.83848
1062
4.84182
1072
4.84516
1155
4.8485
1158
4.85184
1171
4.85518
1257
4.85523
1331
4.85523
1397
4.85523
1528
4.85523
1661
4.85523
1727
4.85523
1749
4.85523
1739
4.85523
1553
4.85523
1320
4.85523
1135
4.85523
967
4.85523
866
4.85523
870
4.85523
785
4.85523
729
4.85523
736
4.85523
754
4.85523
821
4.85523
742
4.85523
694
4.85523
659
4.85523
677
4.85523
655
4.85523
704
4.85523
768
4.85523
803
4.85523
907
4.85523
1009
4.85523
1136
4.85523
1164
4.85523
1161
4.85523
1259
4.85523
1332
4.85523
1380
4.85523
O 1s/4
Not Specified
2010
6
25
16
7
58
0
9
Casa Info Follows
0
0
0
0
   Lens Mode:Field of View 1: Survey   Resolution:Pass energy 10    Iris(Aperture):slot(SPECTRUM SLIT)
   Anode:Mono(Al (Mono))(210 W)   Step(meV): 100.0    Dwell(ms): 400        Sweeps: 20       Acqn. Time(s): 1208    
   Acquired On :10/06/25 16:07:58   C/N :On
   
XPS
16384
16384
0
Mono(Al (Mono))
1486.69
210
1e+37
1e+37
1000
1000
1e+37
1e+37
FAT
10
1e+37
-4.43
0
1e+37
1e+37
1e+37
1e+37
O
1s
-1
Kinetic Energy
eV
950.69
0.1
2
Intensity
d
Transmission
d
pulse counting
0.4
20
0
1e+37
1e+37
1e+37
0
302
4848
37160
0.545015
0.548528
6583
0.548528
6594
0.548505
6765
0.548481
6642
0.548458
6550
0.548434
6736
0.548411
6675
0.548387
6559
0.548364
6548
0.548341
6627
0.548317
6487
0.548294
6540
0.54827
6431
0.548247
6515
0.548223
6433
0.5482
6380
0.548177
6393
0.548153
6316
0.54813
6410
0.548106
6318
0.548083
6365
0.54806
6325
0.548036
6230
0.548013
6292
0.547989
6385
0.547966
6288
0.547943
6312
0.547919
6259
0.547896
6381
0.547872
6291
0.547849
6313
0.547825
6291
0.547802
6283
0.547779
6286
0.547755
6242
0.547732
6242
0.547708
6207
0.547685
6301
0.547661
6256
0.547638
6286
0.547615
6237
0.547591
6244
0.547568
6259
0.547544
6331
0.547521
6286
0.547498
6308
0.547474
6194
0.547451
6360
0.547427
6328
0.547404
6501
0.547381
6582
0.547357
6708
0.547334
6931
0.54731
7119
0.547287
7235
0.547263
7338
0.54724
7775
0.547217
7936
0.547193
8254
0.54717
8648
0.547146
8978
0.547123
9390
0.547099
9751
0.547076
10306
0.547053
10843
0.547029
11383
0.547006
12312
0.546982
12949
0.546959
13973
0.546936
14671
0.546912
15806
0.546889
16960
0.546865
18224
0.546842
19590
0.546818
20878
0.546795
22268
0.546772
23627
0.546748
24905
0.546725
25774
0.546701
26520
0.546678
27040
0.546655
27469
0.546631
27915
0.546608
28534
0.546584
28887
0.546561
29362
0.546538
30071
0.546514
31276
0.546491
32572
0.546467
33972
0.546444
35038
0.54642
36168
0.546397
37067
0.546374
37160
0.54635
36381
0.546327
34541
0.546303
32158
0.54628
29452
0.546256
26635
0.546233
23634
0.54621
21100
0.546186
18955
0.546163
16614
0.546139
14569
0.546116
12685
0.546093
11135
0.546069
9616
0.546046
8431
0.546022
7530
0.545999
6809
0.545976
6375
0.545952
5884
0.545929
5812
0.545905
5662
0.545882
5412
0.545858
5217
0.545835
5235
0.545812
5159
0.545788
5191
0.545765
5244
0.545741
5203
0.545718
5195
0.545694
5082
0.545671
5059
0.545648
5077
0.545624
5051
0.545601
5009
0.545577
5026
0.545554
4961
0.545531
5046
0.545507
5010
0.545484
4966
0.54546
5052
0.545437
4971
0.545413
5031
0.54539
4970
0.545367
4848
0.545343
4978
0.54532
5053
0.545296
4994
0.545273
4934
0.54525
4954
0.545226
4861
0.545203
4979
0.545179
4951
0.545156
4943
0.545132
4919
0.545109
4986
0.545086
5040
0.545062
5042
0.545039
4987
0.545015
C 1s/5
Not Specified
2010
6
25
16
7
58
0
9
Casa Info Follows
0
0
0
0
   Lens Mode:Field of View 1: Survey   Resolution:Pass energy 10    Iris(Aperture):slot(SPECTRUM SLIT)
   Anode:Mono(Al (Mono))(210 W)   Step(meV): 100.0    Dwell(ms): 333        Sweeps: 30       Acqn. Time(s): 1810    
   Acquired On :10/06/25 16:07:58   C/N :On
   
XPS
16384
16384
0
Mono(Al (Mono))
1486.69
210
1e+37
1e+37
1000
1000
1e+37
1e+37
FAT
10
1e+37
-4.43
0
1e+37
1e+37
1e+37
1e+37
C
1s
-1
Kinetic Energy
eV
1193.69
0.1
2
Intensity
d
Transmission
d
pulse counting
0.333333
30
0
1e+37
1e+37
1e+37
1
MFP Exponent
d
0
362
6462
31959
0.503728
0.506281
7432
0.506281
7396
0.506266
7380
0.506252
7476
0.506238
7573
0.506224
7580
0.50621
7315
0.506195
7350
0.506181
7402
0.506167
7253
0.506153
7265
0.506139
7149
0.506124
7240
0.50611
7334
0.506096
7323
0.506082
7221
0.506068
7445
0.506054
7355
0.506039
7382
0.506025
7243
0.506011
7196
0.505997
7216
0.505983
6997
0.505969
7066
0.505954
7171
0.50594
6966
0.505926
6915
0.505912
6800
0.505898
6987
0.505883
6958
0.505869
7085
0.505855
7148
0.505841
7095
0.505827
7259
0.505813
7305
0.505798
7171
0.505784
7399
0.50577
7133
0.505756
7223
0.505742
7196
0.505727
7210
0.505713
7116
0.505699
7158
0.505685
7129
0.505671
7145
0.505657
7190
0.505642
7064
0.505628
7129
0.505614
7053
0.5056
7070
0.505586
7134
0.505571
6968
0.505557
7000
0.505543
6958
0.505529
6975
0.505515
6959
0.5055
7064
0.505486
7006
0.505472
7054
0.505458
6885
0.505444
7018
0.50543
6990
0.505415
7042
0.505401
7056
0.505387
7043
0.505373
7050
0.505359
7182
0.505345
7057
0.50533
7357
0.505316
7336
0.505302
7400
0.505288
7434
0.505274
7475
0.505259
7658
0.505245
7956
0.505231
7958
0.505217
8199
0.505203
8256
0.505189
8447
0.505174
8782
0.50516
8822
0.505146
8928
0.505132
9088
0.505118
8972
0.505103
8822
0.505089
8751
0.505075
8538
0.505061
8422
0.505047
8373
0.505033
8248
0.505018
8030
0.505004
8078
0.50499
7967
0.504976
8137
0.504962
8076
0.504947
8084
0.504933
8159
0.504919
8548
0.504905
8765
0.504891
8991
0.504876
9308
0.504862
9592
0.504848
9804
0.504834
10105
0.50482
10524
0.504806
10891
0.504791
11351
0.504777
12113
0.504763
12932
0.504749
14444
0.504735
16143
0.504721
18354
0.504706
20774
0.504692
23173
0.504678
25655
0.504664
28333
0.50465
30355
0.504635
31703
0.504621
31959
0.504607
31005
0.504593
29322
0.504579
26627
0.504565
23556
0.50455
20133
0.504536
17270
0.504522
14504
0.504508
12271
0.504494
10732
0.504479
9334
0.504465
8559
0.504451
8036
0.504437
7486
0.504423
7304
0.504409
7142
0.504394
7002
0.50438
6978
0.504366
6832
0.504352
6915
0.504338
6844
0.504323
6703
0.504309
6752
0.504295
6636
0.504281
6749
0.504267
6808
0.504252
6702
0.504238
6671
0.504224
6733
0.50421
6797
0.504196
6656
0.504182
6675
0.504167
6700
0.504153
6710
0.504139
6614
0.504125
6699
0.504111
6561
0.504097
6617
0.504082
6625
0.504068
6628
0.504054
6608
0.50404
6462
0.504026
6542
0.504011
6577
0.503997
6713
0.503983
6593
0.503969
6699
0.503955
6753
0.503941
6643
0.503926
6632
0.503912
6631
0.503898
6648
0.503884
6599
0.50387
6514
0.503855
6709
0.503841
6617
0.503827
6499
0.503813
6565
0.503799
6548
0.503785
6529
0.50377
6635
0.503756
6550
0.503742
6671
0.503728
Cr 2p/3
crplating2.vms
2010
6
25
16
7
58
0
12
Casa Info Follows
0
1
annot comps Display 0.05 0.05 RGB(0,0,0)   Font(40,18,400,0,Times New Roman)

0
0
   Lens Mode:Field of View 1: Survey   Resolution:Pass energy 10    Iris(Aperture):slot(SPECTRUM SLIT)
   Anode:Mono(Al (Mono))(210 W)   Step(meV): 50.0     Dwell(ms): 250        Sweeps: 500      Acqn. Time(s): 60125   
   Acquired On :10/06/25 16:07:58   C/N :On
   
E:\mark\transition metal 2 cr mn fe co ni\crplating2.vms
XPS
16384
16384
0
Mono(Al (Mono))
1486.69
210
1e+37
1e+37
1000
1000
1e+37
1e+37
FAT
10
1e+37
-4.43
0
1e+37
1e+37
1e+37
1e+37
Cr
2p
-1
Kinetic Energy
eV
896.69
0.05
2
Intensity
d
Transmission
d
pulse counting
0.25
500
0
1e+37
1e+37
1e+37
1
MFP Exponent
d
0
962
132240
735120
0.555553
0.561173
391327
0.561173
392569
0.561161
392661
0.56115
392595
0.561138
393584
0.561126
394943
0.561114
394804
0.561103
395192
0.561091
395258
0.561079
394193
0.561068
392874
0.561056
390424
0.561044
389515
0.561033
389662
0.561021
388633
0.561009
387128
0.560997
386638
0.560986
386291
0.560974
385525
0.560962
384693
0.560951
384182
0.560939
382864
0.560927
381967
0.560915
381697
0.560904
381672
0.560892
380550
0.56088
380380
0.560869
379546
0.560857
379979
0.560845
379341
0.560834
379083
0.560822
380170
0.56081
378818
0.560798
379294
0.560787
379357
0.560775
379042
0.560763
378229
0.560752
378963
0.56074
377863
0.560728
379221
0.560716
377943
0.560705
378031
0.560693
377721
0.560681
377100
0.56067
377556
0.560658
378255
0.560646
377672
0.560634
378148
0.560623
378251
0.560611
377587
0.560599
377950
0.560588
378369
0.560576
377613
0.560564
377137
0.560552
378940
0.560541
379307
0.560529
378601
0.560517
378277
0.560506
378871
0.560494
378373
0.560482
378705
0.560471
379084
0.560459
379598
0.560447
379021
0.560435
379752
0.560424
380505
0.560412
380341
0.5604
380835
0.560389
381330
0.560377
381777
0.560365
381908
0.560353
382311
0.560342
382297
0.56033
383319
0.560318
383216
0.560307
383515
0.560295
385353
0.560283
385731
0.560272
385565
0.56026
386389
0.560248
387753
0.560236
389015
0.560225
389211
0.560213
390340
0.560201
389938
0.56019
392345
0.560178
391970
0.560166
393218
0.560154
395121
0.560143
395913
0.560131
397028
0.560119
398885
0.560108
400457
0.560096
401218
0.560084
401998
0.560072
402746
0.560061
403989
0.560049
406687
0.560037
407087
0.560026
410057
0.560014
411659
0.560002
413275
0.55999
415176
0.559979
417686
0.559967
420324
0.559955
421245
0.559944
422855
0.559932
425432
0.55992
428517
0.559909
429375
0.559897
431682
0.559885
435490
0.559873
438035
0.559862
439960
0.55985
442589
0.559838
445045
0.559827
448425
0.559815
450605
0.559803
454475
0.559791
455475
0.55978
457668
0.559768
459958
0.559756
462966
0.559745
466609
0.559733
469501
0.559721
472268
0.559709
473740
0.559698
477624
0.559686
479443
0.559674
480747
0.559663
485130
0.559651
488378
0.559639
491686
0.559628
494318
0.559616
495908
0.559604
498646
0.559592
501018
0.559581
504601
0.559569
506843
0.559557
509734
0.559546
512129
0.559534
514367
0.559522
515858
0.55951
518018
0.559499
519401
0.559487
521146
0.559475
522119
0.559464
523722
0.559452
523760
0.55944
523220
0.559429
524654
0.559417
524514
0.559405
523518
0.559393
522844
0.559382
521029
0.55937
519579
0.559358
518576
0.559347
515915
0.559335
512537
0.559323
511180
0.559311
507702
0.5593
503777
0.559288
500982
0.559276
498472
0.559265
494116
0.559253
491127
0.559241
487859
0.559229
484273
0.559218
481535
0.559206
478030
0.559194
475231
0.559183
471197
0.559171
467484
0.559159
464753
0.559147
461380
0.559136
458592
0.559124
456019
0.559112
453171
0.559101
451098
0.559089
448647
0.559077
446623
0.559066
445314
0.559054
443601
0.559042
441686
0.55903
439946
0.559019
440005
0.559007
440634
0.558995
439780
0.558984
440639
0.558972
441981
0.55896
442539
0.558948
444461
0.558937
446107
0.558925
448334
0.558913
450802
0.558902
455145
0.55889
459426
0.558878
463927
0.558867
467702
0.558855
472285
0.558843
477694
0.558831
483455
0.55882
489637
0.558808
495621
0.558796
500880
0.558785
506447
0.558773
511655
0.558761
516647
0.558749
518649
0.558738
521306
0.558726
522146
0.558714
521168
0.558703
518206
0.558691
512456
0.558679
506177
0.558667
498307
0.558656
488663
0.558644
477995
0.558632
467037
0.558621
455203
0.558609
442500
0.558597
430480
0.558585
418891
0.558574
408397
0.558562
398227
0.55855
389174
0.558539
379251
0.558527
371510
0.558515
364557
0.558504
358570
0.558492
351719
0.55848
346157
0.558468
341083
0.558457
336569
0.558445
332860
0.558433
329497
0.558422
326911
0.55841
324581
0.558398
320860
0.558386
317330
0.558375
314940
0.558363
312954
0.558351
311031
0.55834
311095
0.558328
308802
0.558316
307578
0.558304
305390
0.558293
304277
0.558281
303767
0.558269
302456
0.558258
301902
0.558246
300696
0.558234
299570
0.558223
298841
0.558211
298448
0.558199
297099
0.558187
298279
0.558176
296442
0.558164
296424
0.558152
296183
0.558141
295675
0.558129
295713
0.558117
295727
0.558105
296017
0.558094
295903
0.558082
296519
0.55807
296118
0.558059
296568
0.558047
297347
0.558035
298745
0.558023
299115
0.558012
299384
0.558
299637
0.557988
301441
0.557977
303099
0.557965
303868
0.557953
304677
0.557941
305387
0.55793
307129
0.557918
308798
0.557906
309586
0.557895
312569
0.557883
314215
0.557871
316651
0.55786
318172
0.557848
320698
0.557836
323645
0.557824
326714
0.557813
329139
0.557801
332352
0.557789
334850
0.557778
338046
0.557766
341900
0.557754
345207
0.557742
349432
0.557731
352851
0.557719
355988
0.557707
360601
0.557696
366112
0.557684
370288
0.557672
373895
0.557661
378678
0.557649
383512
0.557637
386980
0.557625
391402
0.557614
396013
0.557602
401440
0.55759
406999
0.557579
412442
0.557567
417170
0.557555
423493
0.557543
429788
0.557532
435267
0.55752
440524
0.557508
446199
0.557497
453682
0.557485
461007
0.557473
468090
0.557461
474532
0.55745
481165
0.557438
489168
0.557426
496474
0.557415
505431
0.557403
512906
0.557391
521253
0.557379
529649
0.557368
538610
0.557356
546304
0.557344
554373
0.557333
561935
0.557321
570410
0.557309
577267
0.557298
584765
0.557286
591497
0.557274
596751
0.557262
601837
0.557251
607089
0.557239
610055
0.557227
611386
0.557216
613687
0.557204
615688
0.557192
615532
0.55718
616410
0.557169
615773
0.557157
613812
0.557145
611627
0.557134
608097
0.557122
605742
0.55711
602003
0.557099
600120
0.557087
596315
0.557075
592820
0.557063
589596
0.557052
587712
0.55704
584918
0.557028
582828
0.557017
581494
0.557005
580993
0.556993
579239
0.556981
576298
0.55697
572752
0.556958
571110
0.556946
566196
0.556935
561170
0.556923
554356
0.556911
548242
0.556899
540658
0.556888
533499
0.556876
525660
0.556864
517537
0.556853
510081
0.556841
503436
0.556829
496242
0.556818
490909
0.556806
487479
0.556794
485428
0.556782
483794
0.556771
484001
0.556759
486724
0.556747
489351
0.556736
494926
0.556724
501815
0.556712
510249
0.5567
520040
0.556689
532674
0.556677
547476
0.556665
563226
0.556654
582095
0.556642
602040
0.55663
623429
0.556618
644806
0.556607
666775
0.556595
687901
0.556583
706946
0.556572
722224
0.55656
732638
0.556548
735120
0.556536
730024
0.556525
717202
0.556513
695084
0.556501
662002
0.55649
624982
0.556478
581930
0.556466
535883
0.556455
488994
0.556443
443112
0.556431
400390
0.556419
362790
0.556408
329888
0.556396
300853
0.556384
276052
0.556373
256019
0.556361
237429
0.556349
223414
0.556337
211381
0.556326
201064
0.556314
192502
0.556302
185010
0.556291
179323
0.556279
174401
0.556267
170279
0.556256
165462
0.556244
162816
0.556232
160025
0.55622
156881
0.556209
154846
0.556197
153593
0.556185
151028
0.556174
149837
0.556162
148551
0.55615
147308
0.556138
146274
0.556127
144955
0.556115
144162
0.556103
142830
0.556092
141896
0.55608
141313
0.556068
141031
0.556056
140603
0.556045
140096
0.556033
139272
0.556021
139122
0.55601
138346
0.555998
137748
0.555986
138374
0.555974
137296
0.555963
137109
0.555951
136744
0.555939
136356
0.555928
136478
0.555916
136812
0.555904
135778
0.555893
135036
0.555881
135837
0.555869
135180
0.555857
134936
0.555846
134885
0.555834
134722
0.555822
134501
0.555811
134450
0.555799
134363
0.555787
135060
0.555775
134698
0.555764
134467
0.555752
134321
0.55574
133791
0.555729
133554
0.555717
133233
0.555705
133448
0.555694
132729
0.555682
133245
0.55567
132849
0.555658
132808
0.555647
132631
0.555635
132489
0.555623
132336
0.555612
132290
0.5556
132672
0.555588
132310
0.555576
132240
0.555565
132304
0.555553
end of experiment
