Dye A,,Dye B,,
Wavelength (nm),Abs,Wavelength (nm),%T
800.00,0.02000,800.00,97.6178
799.00,0.02060,799.00,97.6421
798.00,0.01945,798.00,97.7579
797.00,0.01822,797.00,97.7271
796.00,0.01909,796.00,97.6634
795.00,0.01802,795.00,97.6371
794.00,0.02012,794.00,97.5829
793.00,0.02268,793.00,97.6547
792.00,0.01902,792.00,97.6694
791.00,0.01876,791.00,97.6631
790.00,0.02098,790.00,97.6587
789.00,0.02071,789.00,97.6031
788.00,0.02021,788.00,97.6515
787.00,0.01814,787.00,97.6482
786.00,0.01994,786.00,97.7096
785.00,0.02139,785.00,97.7331
784.00,0.01731,784.00,97.6273
783.00,0.01908,783.00,97.5898
782.00,0.01620,782.00,97.6185
781.00,0.01742,781.00,97.5846
780.00,0.01632,780.00,97.5707
779.00,0.01953,779.00,97.5972
778.00,0.01747,778.00,97.5399
777.00,0.02054,777.00,97.6138
776.00,0.02031,776.00,97.5692
775.00,0.01963,775.00,97.5773
774.00,0.01497,774.00,97.5454
773.00,0.01892,773.00,97.5073
772.00,0.01990,772.00,97.4848
771.00,0.02023,771.00,97.5082
770.00,0.01694,770.00,97.4798
769.00,0.01904,769.00,97.5054
768.00,0.01804,768.00,97.4791
767.00,0.01838,767.00,97.3960
766.00,0.02212,766.00,97.4514
765.00,0.01838,765.00,97.3639
764.00,0.01993,764.00,97.3823
763.00,0.02177,763.00,97.3794
762.00,0.01883,762.00,97.2704
761.00,0.01978,761.00,97.3576
760.00,0.02022,760.00,97.3383
759.00,0.02013,759.00,97.2993
758.00,0.01755,758.00,97.2612
757.00,0.02015,757.00,97.2377
756.00,0.02272,756.00,97.1800
755.00,0.01691,755.00,97.1863
754.00,0.02172,754.00,97.1417
753.00,0.02024,753.00,97.1417
752.00,0.01872,752.00,97.0431
751.00,0.02400,751.00,97.0795
750.00,0.02152,750.00,97.0374
749.00,0.01760,749.00,96.9838
748.00,0.02015,748.00,96.9276
747.00,0.02115,747.00,96.9337
746.00,0.01962,746.00,96.7772
745.00,0.02137,745.00,96.8355
744.00,0.01987,744.00,96.7742
743.00,0.02133,743.00,96.7234
742.00,0.02288,742.00,96.6730
741.00,0.01865,741.00,96.5631
740.00,0.02041,740.00,96.5218
739.00,0.01907,739.00,96.5028
738.00,0.02025,738.00,96.4256
737.00,0.01763,737.00,96.3444
736.00,0.01884,736.00,96.1850
735.00,0.01961,735.00,96.2109
734.00,0.02180,734.00,96.1621
733.00,0.02229,733.00,96.0702
732.00,0.01735,732.00,95.9436
731.00,0.01841,731.00,95.7622
730.00,0.02129,730.00,95.7914
729.00,0.01602,729.00,95.6368
728.00,0.01907,728.00,95.4130
727.00,0.01981,727.00,95.4494
726.00,0.02251,726.00,95.2421
725.00,0.02138,725.00,95.1333
724.00,0.01935,724.00,95.0426
723.00,0.01926,723.00,95.0090
722.00,0.01950,722.00,94.7926
721.00,0.02305,721.00,94.6848
720.00,0.01914,720.00,94.6130
719.00,0.01939,719.00,94.4538
718.00,0.02071,718.00,94.2114
717.00,0.01976,717.00,94.0406
716.00,0.01961,716.00,93.8193
715.00,0.01777,715.00,93.6707
714.00,0.01998,714.00,93.5429
713.00,0.01911,713.00,93.3506
712.00,0.02233,712.00,93.1384
711.00,0.02131,711.00,92.9772
710.00,0.01995,710.00,92.6759
709.00,0.02134,709.00,92.4909
708.00,0.01932,708.00,92.3016
707.00,0.02210,707.00,92.0574
706.00,0.01999,706.00,91.8365
705.00,0.02117,705.00,91.5491
704.00,0.01742,704.00,91.2513
703.00,0.02069,703.00,91.0135
702.00,0.01662,702.00,90.6648
701.00,0.01593,701.00,90.3433
700.00,0.01939,700.00,90.1551
699.00,0.01820,699.00,89.8146
698.00,0.02033,698.00,89.5142
697.00,0.02449,697.00,89.0854
696.00,0.01834,696.00,88.8134
695.00,0.01875,695.00,88.4528
694.00,0.02041,694.00,88.0804
693.00,0.02099,693.00,87.6411
692.00,0.01965,692.00,87.3566
691.00,0.01959,691.00,87.0270
690.00,0.02140,690.00,86.5990
689.00,0.02104,689.00,86.1367
688.00,0.01793,688.00,85.7417
687.00,0.01984,687.00,85.3447
686.00,0.02007,686.00,84.7221
685.00,0.01789,685.00,84.3957
684.00,0.02052,684.00,83.9595
683.00,0.01828,683.00,83.4855
682.00,0.02194,682.00,83.0439
681.00,0.02039,681.00,82.5116
680.00,0.02018,680.00,81.9550
679.00,0.01882,679.00,81.4274
678.00,0.01976,678.00,80.9132
677.00,0.01600,677.00,80.2970
676.00,0.01774,676.00,79.7606
675.00,0.02073,675.00,79.2354
674.00,0.01574,674.00,78.7041
673.00,0.02169,673.00,78.0033
672.00,0.01651,672.00,77.4029
671.00,0.02151,671.00,76.7984
670.00,0.01831,670.00,76.2280
669.00,0.02156,669.00,75.5212
668.00,0.02026,668.00,74.9477
667.00,0.01693,667.00,74.1672
666.00,0.02250,666.00,73.5375
665.00,0.02288,665.00,72.8585
664.00,0.01987,664.00,72.2199
663.00,0.01945,663.00,71.5358
662.00,0.01968,662.00,70.7021
661.00,0.01805,661.00,70.0171
660.00,0.02220,660.00,69.3568
659.00,0.01891,659.00,68.5761
658.00,0.01990,658.00,67.7944
657.00,0.01841,657.00,67.1766
656.00,0.01875,656.00,66.3966
655.00,0.01744,655.00,65.6374
654.00,0.02251,654.00,64.8236
653.00,0.01969,653.00,64.1277
652.00,0.02193,652.00,63.2879
651.00,0.02003,651.00,62.5735
650.00,0.01861,650.00,61.6875
649.00,0.01935,649.00,60.9009
648.00,0.01888,648.00,60.1608
647.00,0.02002,647.00,59.3193
646.00,0.01925,646.00,58.5896
645.00,0.01940,645.00,57.7681
644.00,0.01724,644.00,56.9067
643.00,0.01839,643.00,56.1531
642.00,0.02331,642.00,55.3279
641.00,0.01866,641.00,54.5871
640.00,0.01789,640.00,53.7059
639.00,0.02067,639.00,52.9127
638.00,0.02281,638.00,52.1936
637.00,0.01709,637.00,51.4453
636.00,0.01958,636.00,50.6358
635.00,0.01874,635.00,49.7444
634.00,0.01648,634.00,48.9608
633.00,0.02147,633.00,48.2388
632.00,0.01995,632.00,47.3724
631.00,0.02014,631.00,46.5509
630.00,0.01850,630.00,45.8317
629.00,0.02091,629.00,45.0800
628.00,0.01892,628.00,44.2535
627.00,0.01971,627.00,43.4564
626.00,0.01778,626.00,42.7174
625.00,0.01757,625.00,42.0801
624.00,0.02267,624.00,41.2739
623.00,0.01899,623.00,40.5776
622.00,0.02058,622.00,39.8762
621.00,0.01993,621.00,39.1859
620.00,0.01912,620.00,38.4364
619.00,0.01898,619.00,37.7852
618.00,0.02126,618.00,37.0323
617.00,0.01940,617.00,36.3848
616.00,0.01970,616.00,35.6876
615.00,0.02004,615.00,35.1414
614.00,0.02235,614.00,34.4397
613.00,0.02136,613.00,33.7708
612.00,0.02077,612.00,33.1675
611.00,0.01887,611.00,32.5622
610.00,0.01724,610.00,32.0074
609.00,0.02190,609.00,31.3028
608.00,0.02193,608.00,30.7522
607.00,0.01972,607.00,30.2178
606.00,0.02108,606.00,29.8074
605.00,0.02156,605.00,29.1842
604.00,0.02166,604.00,28.5979
603.00,0.02184,603.00,28.1177
602.00,0.01909,602.00,27.6752
601.00,0.02303,601.00,27.0625
600.00,0.01751,600.00,26.5694
599.00,0.02172,599.00,26.1735
598.00,0.02099,598.00,25.6743
597.00,0.02175,597.00,25.2315
596.00,0.02376,596.00,24.7324
595.00,0.02297,595.00,24.4254
594.00,0.01771,594.00,23.9976
593.00,0.01662,593.00,23.5346
592.00,0.02163,592.00,23.1462
591.00,0.01797,591.00,22.6274
590.00,0.01998,590.00,22.3887
589.00,0.02168,589.00,21.9862
588.00,0.01671,588.00,21.6678
587.00,0.01578,587.00,21.3412
586.00,0.02052,586.00,20.9619
585.00,0.02009,585.00,20.5770
584.00,0.01951,584.00,20.3730
583.00,0.02008,583.00,20.0212
582.00,0.01828,582.00,19.7558
581.00,0.01697,581.00,19.4664
580.00,0.01967,580.00,19.2139
579.00,0.01806,579.00,18.8600
578.00,0.01671,578.00,18.7908
577.00,0.02101,577.00,18.5068
576.00,0.01988,576.00,18.3236
575.00,0.02081,575.00,18.1506
574.00,0.01802,574.00,17.8457
573.00,0.01868,573.00,17.5569
572.00,0.01800,572.00,17.4139
571.00,0.01823,571.00,17.2191
570.00,0.02039,570.00,17.0842
569.00,0.01843,569.00,16.9521
568.00,0.02071,568.00,16.6957
567.00,0.02068,567.00,16.6695
566.00,0.02405,566.00,16.4420
565.00,0.01722,565.00,16.4062
564.00,0.02178,564.00,16.2681
563.00,0.01982,563.00,16.1487
562.00,0.01997,562.00,16.0599
561.00,0.01710,561.00,15.9440
560.00,0.01908,560.00,15.8561
559.00,0.02149,559.00,15.7265
558.00,0.01984,558.00,15.7412
557.00,0.02016,557.00,15.7752
556.00,0.01942,556.00,15.7301
555.00,0.02231,555.00,15.6535
554.00,0.01996,554.00,15.5869
553.00,0.01560,553.00,15.4900
552.00,0.01862,552.00,15.5762
551.00,0.01607,551.00,15.4893
550.00,0.01350,550.00,15.4847
549.00,0.01895,549.00,15.4776
548.00,0.02267,548.00,15.5086
547.00,0.02010,547.00,15.5021
546.00,0.01766,546.00,15.5474
545.00,0.01813,545.00,15.5331
544.00,0.02227,544.00,15.6124
543.00,0.02033,543.00,15.7969
542.00,0.02011,542.00,15.7392
541.00,0.01991,541.00,15.7987
540.00,0.02010,540.00,15.9133
539.00,0.02163,539.00,16.0064
538.00,0.02113,538.00,16.0078
537.00,0.02046,537.00,16.1540
536.00,0.01794,536.00,16.3195
535.00,0.02106,535.00,16.4048
534.00,0.01867,534.00,16.5236
533.00,0.02223,533.00,16.7300
532.00,0.01751,532.00,16.7620
531.00,0.01978,531.00,16.9523
530.00,0.02005,530.00,17.0833
529.00,0.01742,529.00,17.3540
528.00,0.02352,528.00,17.3610
527.00,0.02300,527.00,17.6135
526.00,0.01917,526.00,17.8181
525.00,0.02165,525.00,18.0848
524.00,0.02087,524.00,18.2984
523.00,0.01490,523.00,18.5639
522.00,0.02065,522.00,18.6512
521.00,0.02004,521.00,19.0130
520.00,0.02035,520.00,19.2164
519.00,0.01805,519.00,19.4633
518.00,0.01968,518.00,19.7993
517.00,0.01989,517.00,20.0123
516.00,0.02265,516.00,20.2508
515.00,0.02097,515.00,20.6430
514.00,0.02032,514.00,20.9041
513.00,0.02343,513.00,21.2747
512.00,0.01930,512.00,21.6647
511.00,0.01968,511.00,22.0115
510.00,0.01687,510.00,22.4362
509.00,0.02369,509.00,22.7188
508.00,0.02254,508.00,23.0353
507.00,0.02251,507.00,23.4685
506.00,0.02208,506.00,23.8661
505.00,0.02104,505.00,24.2683
504.00,0.02134,504.00,24.7796
503.00,0.02049,503.00,25.1657
502.00,0.02069,502.00,25.5507
501.00,0.02132,501.00,26.1477
500.00,0.02435,500.00,26.5822
499.00,0.02257,499.00,27.0921
498.00,0.02148,498.00,27.5776
497.00,0.02059,497.00,28.1137
496.00,0.02065,496.00,28.6054
495.00,0.02531,495.00,29.1982
494.00,0.02331,494.00,29.7021
493.00,0.02265,493.00,30.2563
492.00,0.02206,492.00,30.8245
491.00,0.02079,491.00,31.3098
490.00,0.02315,490.00,31.9642
489.00,0.02533,489.00,32.5603
488.00,0.02312,488.00,33.1955
487.00,0.02380,487.00,33.7399
486.00,0.02419,486.00,34.5228
485.00,0.02526,485.00,35.0900
484.00,0.02230,484.00,35.6783
483.00,0.02549,483.00,36.3175
482.00,0.02477,482.00,37.0628
481.00,0.02880,481.00,37.7558
480.00,0.02609,480.00,38.4172
479.00,0.02943,479.00,39.1596
478.00,0.03201,478.00,39.8335
477.00,0.02908,477.00,40.6122
476.00,0.02930,476.00,41.2756
475.00,0.03175,475.00,42.0449
474.00,0.03228,474.00,42.8382
473.00,0.03128,473.00,43.6673
472.00,0.03525,472.00,44.2446
471.00,0.03949,471.00,45.0342
470.00,0.03615,470.00,45.7838
469.00,0.03755,469.00,46.6389
468.00,0.03725,468.00,47.3212
467.00,0.04145,467.00,48.1379
466.00,0.03989,466.00,48.9483
465.00,0.04184,465.00,49.6923
464.00,0.04840,464.00,50.4880
463.00,0.04593,463.00,51.3096
462.00,0.05192,462.00,52.0281
461.00,0.05496,461.00,52.8624
460.00,0.05471,460.00,53.7169
459.00,0.05772,459.00,54.5487
458.00,0.06309,458.00,55.3362
457.00,0.06151,457.00,56.0608
456.00,0.06360,456.00,56.9297
455.00,0.06514,455.00,57.7951
454.00,0.07115,454.00,58.5836
453.00,0.07744,453.00,59.3505
452.00,0.08001,452.00,60.1062
451.00,0.08001,451.00,60.9751
450.00,0.08419,450.00,61.7042
449.00,0.08913,449.00,62.4603
448.00,0.09517,448.00,63.2598
447.00,0.09886,447.00,64.1487
446.00,0.10463,446.00,64.8583
445.00,0.10997,445.00,65.6707
444.00,0.11422,444.00,66.3480
443.00,0.12044,443.00,67.1716
442.00,0.12692,442.00,67.8404
441.00,0.13261,441.00,68.6012
440.00,0.14035,440.00,69.4643
439.00,0.14995,439.00,70.1013
438.00,0.15457,438.00,70.7525
437.00,0.16099,437.00,71.4793
436.00,0.16533,436.00,72.1969
435.00,0.17764,435.00,72.9290
434.00,0.18148,434.00,73.5224
433.00,0.19142,433.00,74.1284
432.00,0.20516,432.00,74.8602
431.00,0.21445,431.00,75.5235
430.00,0.22270,430.00,76.1663
429.00,0.22992,429.00,76.8543
428.00,0.24333,428.00,77.4211
427.00,0.25384,427.00,78.0519
426.00,0.26799,426.00,78.5512
425.00,0.28315,425.00,79.2334
424.00,0.29139,424.00,79.8675
423.00,0.30214,423.00,80.3626
422.00,0.31451,422.00,80.8865
421.00,0.33030,421.00,81.4200
420.00,0.34404,420.00,82.0287
419.00,0.35650,419.00,82.4085
418.00,0.37385,418.00,82.9533
417.00,0.38655,417.00,83.4744
416.00,0.40673,416.00,83.9696
415.00,0.42270,415.00,84.3801
414.00,0.43923,414.00,84.8755
413.00,0.45299,413.00,85.2930
412.00,0.47226,412.00,85.7484
411.00,0.48864,411.00,86.1601
410.00,0.50620,410.00,86.5228
409.00,0.52475,409.00,86.9810
408.00,0.54165,408.00,87.4172
407.00,0.56055,407.00,87.7055
406.00,0.58456,406.00,88.1115
405.00,0.60245,405.00,88.5161
404.00,0.62346,404.00,88.7782
403.00,0.64554,403.00,89.1794
402.00,0.66087,402.00,89.4458
401.00,0.68384,401.00,89.8740
400.00,0.70710,400.00,90.2417
399.00,0.72911,399.00,90.5263
398.00,0.74937,398.00,90.7040
397.00,0.77419,397.00,91.0324
396.00,0.79473,396.00,91.2728
395.00,0.81422,395.00,91.5343
394.00,0.83725,394.00,91.8603
393.00,0.86330,393.00,91.9622
392.00,0.88527,392.00,92.3178
391.00,0.90326,391.00,92.4913
390.00,0.93249,390.00,92.7849
389.00,0.95373,389.00,92.9368
388.00,0.97793,388.00,93.0992
387.00,0.99713,387.00,93.3447
386.00,1.01987,386.00,93.5584
385.00,1.04066,385.00,93.7072
384.00,1.07028,384.00,93.9068
383.00,1.08697,383.00,94.0266
382.00,1.11240,382.00,94.1098
381.00,1.12959,381.00,94.4191
380.00,1.15259,380.00,94.5606
379.00,1.16999,379.00,94.6786
378.00,1.19329,378.00,94.8145
377.00,1.21638,377.00,94.9972
376.00,1.23185,376.00,95.0515
375.00,1.25601,375.00,95.1627
374.00,1.27358,374.00,95.3073
373.00,1.28936,373.00,95.4900
372.00,1.30845,372.00,95.4703
371.00,1.32597,371.00,95.7037
370.00,1.34365,370.00,95.7123
369.00,1.35890,369.00,95.7851
368.00,1.37391,368.00,95.9949
367.00,1.38986,367.00,96.0148
366.00,1.40262,366.00,96.0386
365.00,1.41557,365.00,96.1660
364.00,1.43079,364.00,96.3073
363.00,1.44460,363.00,96.3936
362.00,1.45094,362.00,96.3827
361.00,1.46435,361.00,96.4913
360.00,1.47255,360.00,96.5705
359.00,1.48055,359.00,96.5635
358.00,1.49200,358.00,96.6716
357.00,1.49617,357.00,96.7077
356.00,1.50622,356.00,96.7353
355.00,1.50677,355.00,96.7878
354.00,1.51329,354.00,96.8637
353.00,1.51533,353.00,96.9076
352.00,1.51662,352.00,96.9213
351.00,1.52071,351.00,96.9696
350.00,1.51969,350.00,97.0859
349.00,1.52074,349.00,97.0784
348.00,1.51803,348.00,97.1476
347.00,1.51362,347.00,97.1972
346.00,1.51231,346.00,97.1987
345.00,1.50843,345.00,97.3134
344.00,1.50514,344.00,97.1876
343.00,1.49539,343.00,97.2968
342.00,1.49022,342.00,97.2666
341.00,1.47906,341.00,97.4000
340.00,1.47515,340.00,97.4158
339.00,1.46218,339.00,97.2553
338.00,1.45038,338.00,97.3257
337.00,1.44272,337.00,97.4273
336.00,1.43309,336.00,97.4526
335.00,1.41510,335.00,97.4678
334.00,1.40250,334.00,97.4445
333.00,1.38898,333.00,97.4868
332.00,1.37330,332.00,97.5119
331.00,1.36074,331.00,97.4898
330.00,1.34213,330.00,97.5586
329.00,1.32545,329.00,97.4071
328.00,1.31062,328.00,97.5639
327.00,1.28993,327.00,97.4920
326.00,1.27377,326.00,97.6025
325.00,1.25192,325.00,97.5533
324.00,1.23193,324.00,97.5300
323.00,1.21074,323.00,97.6022
322.00,1.19778,322.00,97.5465
321.00,1.17269,321.00,97.5545
320.00,1.15275,320.00,97.5294
319.00,1.13082,319.00,97.6136
318.00,1.10954,318.00,97.6466
317.00,1.08742,317.00,97.6793
316.00,1.06902,316.00,97.6270
315.00,1.04083,315.00,97.6922
314.00,1.01735,314.00,97.6460
313.00,0.99588,313.00,97.6454
312.00,0.97258,312.00,97.6835
311.00,0.95403,311.00,97.7121
310.00,0.93144,310.00,97.6463
309.00,0.90513,309.00,97.6551
308.00,0.88156,308.00,97.6629
307.00,0.86098,307.00,97.6785
306.00,0.84189,306.00,97.6326
305.00,0.81100,305.00,97.7320
304.00,0.79536,304.00,97.6634
303.00,0.76998,303.00,97.7092
302.00,0.75221,302.00,97.6473
301.00,0.72617,301.00,97.7089
300.00,0.70618,300.00,97.7127

Method
Instrument,Cary 60
Scan rate (nm/min),600.00
