Wavelength (nm),Absorbance
300.0,2.82539
301.0,2.81538
302.0,2.80231
303.0,2.78566
304.0,2.78038
305.0,2.76694
306.0,2.75176
307.0,2.74271
308.0,2.72950
309.0,2.71656
310.0,2.70285
311.0,2.69133
312.0,2.67422
313.0,2.66251
314.0,2.64793
315.0,2.63737
316.0,2.62169
317.0,2.60651
318.0,2.59066
319.0,2.57766
320.0,2.56368
321.0,2.54784
322.0,2.53736
323.0,2.52109
324.0,2.49432
325.0,2.48094
326.0,2.47002
327.0,2.45298
328.0,2.43836
329.0,2.42160
330.0,2.41029
331.0,2.38334
332.0,2.36802
333.0,2.35751
334.0,2.33528
335.0,2.31701
336.0,2.29489
337.0,2.27261
338.0,2.25888
339.0,2.23924
340.0,2.21544
341.0,2.19698
342.0,2.17839
343.0,2.15501
344.0,2.13644
345.0,2.11556
346.0,2.09356
347.0,2.06972
348.0,2.05043
349.0,2.02832
350.0,2.00319
351.0,1.97592
352.0,1.95627
353.0,1.92780
354.0,1.90669
355.0,1.87508
356.0,1.85476
357.0,1.82513
358.0,1.79404
359.0,1.76884
360.0,1.74131
361.0,1.71267
362.0,1.67891
363.0,1.64781
364.0,1.62022
365.0,1.58589
366.0,1.55479
367.0,1.52223
368.0,1.47986
369.0,1.44936
370.0,1.41489
371.0,1.37170
372.0,1.33017
373.0,1.29338
374.0,1.24876
375.0,1.20573
376.0,1.15502
377.0,1.10231
378.0,1.05449
379.0,0.99850
380.0,0.94358
381.0,0.87891
382.0,0.80514
383.0,0.73124
384.0,0.65289
385.0,0.55385
386.0,0.42777
387.0,0.24863
388.0,0.02134
389.0,0.02141
390.0,0.02263
391.0,0.02077
392.0,0.01972
393.0,0.01922
394.0,0.02317
395.0,0.01325
396.0,0.01958
397.0,0.02010
398.0,0.01572
399.0,0.02100
400.0,0.01805
401.0,0.02259
402.0,0.01962
403.0,0.02201
404.0,0.02366
405.0,0.02115
406.0,0.01737
407.0,0.01546
408.0,0.02526
409.0,0.01967
410.0,0.01793
411.0,0.02043
412.0,0.01943
413.0,0.02256
414.0,0.02010
415.0,0.02004
416.0,0.01786
417.0,0.02141
418.0,0.01690
419.0,0.02200
420.0,0.02457
421.0,0.01543
422.0,0.01260
423.0,0.02185
424.0,0.02764
425.0,0.01700
426.0,0.01625
427.0,0.02177
428.0,0.01748
429.0,0.01848
430.0,0.01896
431.0,0.02160
432.0,0.01878
433.0,0.02083
434.0,0.01947
435.0,0.01747
436.0,0.01904
437.0,0.01715
438.0,0.02002
439.0,0.01663
440.0,0.01672
441.0,0.02437
442.0,0.01984
443.0,0.01984
444.0,0.02153
445.0,0.01874
446.0,0.01931
447.0,0.02128
448.0,0.02085
449.0,0.01652
450.0,0.02250
451.0,0.01823
452.0,0.01683
453.0,0.01730
454.0,0.01883
455.0,0.02488
456.0,0.01647
457.0,0.02048
458.0,0.01359
459.0,0.02000
460.0,0.02270
461.0,0.01929
462.0,0.01811
463.0,0.02069
464.0,0.02210
465.0,0.02199
466.0,0.02592
467.0,0.02063
468.0,0.01822
469.0,0.01962
470.0,0.01978
471.0,0.02033
472.0,0.01991
473.0,0.02052
474.0,0.01499
475.0,0.02249
476.0,0.01828
477.0,0.01648
478.0,0.02191
479.0,0.02395
480.0,0.02148
481.0,0.02048
482.0,0.01720
483.0,0.02861
484.0,0.02264
485.0,0.01658
486.0,0.01766
487.0,0.02026
488.0,0.01534
489.0,0.02051
490.0,0.01862
491.0,0.02368
492.0,0.02289
493.0,0.01187
494.0,0.02013
495.0,0.01515
496.0,0.02333
497.0,0.02050
498.0,0.02165
499.0,0.01680
500.0,0.02549
501.0,0.02606
502.0,0.01681
503.0,0.02112
504.0,0.01798
505.0,0.01993
506.0,0.01620
507.0,0.02560
508.0,0.01709
509.0,0.01911
510.0,0.02150
511.0,0.01806
512.0,0.01928
513.0,0.01831
514.0,0.01960
515.0,0.01649
516.0,0.01869
517.0,0.01938
518.0,0.01900
519.0,0.02017
520.0,0.01912
521.0,0.02226
522.0,0.01903
523.0,0.01959
524.0,0.01801
525.0,0.01842
526.0,0.01621
527.0,0.02156
528.0,0.01657
529.0,0.01776
530.0,0.02108
531.0,0.02121
532.0,0.01880
533.0,0.01394
534.0,0.02126
535.0,0.02078
536.0,0.01576
537.0,0.02231
538.0,0.01790
539.0,0.01662
540.0,0.02029
541.0,0.01946
542.0,0.02061
543.0,0.01518
544.0,0.02544
545.0,0.01819
546.0,0.01538
547.0,0.02186
548.0,0.01894
549.0,0.02097
550.0,0.01898
551.0,0.01982
552.0,0.02074
553.0,0.01776
554.0,0.02204
555.0,0.01859
556.0,0.01739
557.0,0.02023
558.0,0.02134
559.0,0.01931
560.0,0.01741
561.0,0.02186
562.0,0.01472
563.0,0.01691
564.0,0.02012
565.0,0.01592
566.0,0.02008
567.0,0.01984
568.0,0.02270
569.0,0.01726
570.0,0.01812
571.0,0.02100
572.0,0.01263
573.0,0.02930
574.0,0.01790
575.0,0.01781
576.0,0.02258
577.0,0.01988
578.0,0.01466
579.0,0.02188
580.0,0.02257
581.0,0.01865
582.0,0.01916
583.0,0.02146
584.0,0.01727
585.0,0.02132
586.0,0.02060
587.0,0.01798
588.0,0.01582
589.0,0.01932
590.0,0.01737
591.0,0.02300
592.0,0.02043
593.0,0.02235
594.0,0.02040
595.0,0.02079
596.0,0.01765
597.0,0.02200
598.0,0.02535
599.0,0.01907
600.0,0.01822
601.0,0.01953
602.0,0.01856
603.0,0.01790
604.0,0.02041
605.0,0.01913
606.0,0.02432
607.0,0.02000
608.0,0.02097
609.0,0.02286
610.0,0.01910
611.0,0.02431
612.0,0.01810
613.0,0.01758
614.0,0.01890
615.0,0.01966
616.0,0.01580
617.0,0.01989
618.0,0.01500
619.0,0.02418
620.0,0.01976
621.0,0.01807
622.0,0.01727
623.0,0.01885
624.0,0.01933
625.0,0.01687
626.0,0.01724
627.0,0.01944
628.0,0.01844
629.0,0.02282
630.0,0.02341
631.0,0.02005
632.0,0.02142
633.0,0.01599
634.0,0.02191
635.0,0.01991
636.0,0.02145
637.0,0.02480
638.0,0.01316
639.0,0.02078
640.0,0.01670
641.0,0.02178
642.0,0.01606
643.0,0.01851
644.0,0.02061
645.0,0.02184
646.0,0.02022
647.0,0.01762
648.0,0.01834
649.0,0.02265
650.0,0.01998
651.0,0.01495
652.0,0.02253
653.0,0.02125
654.0,0.02262
655.0,0.01899
656.0,0.02248
657.0,0.01682
658.0,0.02171
659.0,0.01853
660.0,0.02202
661.0,0.02302
662.0,0.01779
663.0,0.01985
664.0,0.02012
665.0,0.02357
666.0,0.02213
667.0,0.01634
668.0,0.02137
669.0,0.02224
670.0,0.02637
671.0,0.01496
672.0,0.01839
673.0,0.02400
674.0,0.01593
675.0,0.01640
676.0,0.02155
677.0,0.02306
678.0,0.01799
679.0,0.02162
680.0,0.02035
681.0,0.02456
682.0,0.02000
683.0,0.02297
684.0,0.01729
685.0,0.01945
686.0,0.01971
687.0,0.02342
688.0,0.02174
689.0,0.01774
690.0,0.02205
691.0,0.02231
692.0,0.01967
693.0,0.01923
694.0,0.01942
695.0,0.01492
696.0,0.02057
697.0,0.02070
698.0,0.01740
699.0,0.02223
700.0,0.01588
701.0,0.01834
702.0,0.01857
703.0,0.02596
704.0,0.01520
705.0,0.02169
706.0,0.02283
707.0,0.02113
708.0,0.02355
709.0,0.01699
710.0,0.01316
711.0,0.02230
712.0,0.01641
713.0,0.01902
714.0,0.01646
715.0,0.02316
716.0,0.02260
717.0,0.01784
718.0,0.02271
719.0,0.02036
720.0,0.01958
721.0,0.02017
722.0,0.01939
723.0,0.02185
724.0,0.02093
725.0,0.01895
726.0,0.02302
727.0,0.01817
728.0,0.02086
729.0,0.02127
730.0,0.02444
731.0,0.01848
732.0,0.02523
733.0,0.02053
734.0,0.01942
735.0,0.01798
736.0,0.02176
737.0,0.02015
738.0,0.01669
739.0,0.01662
740.0,0.01833
741.0,0.01797
742.0,0.02327
743.0,0.02413
744.0,0.02261
745.0,0.02107
746.0,0.01872
747.0,0.02016
748.0,0.02265
749.0,0.02639
750.0,0.02274
751.0,0.01916
752.0,0.02011
753.0,0.01855
754.0,0.01765
755.0,0.01945
756.0,0.02059
757.0,0.02551
758.0,0.02016
759.0,0.02407
760.0,0.02530
761.0,0.02024
762.0,0.02482
763.0,0.02214
764.0,0.01875
765.0,0.02080
766.0,0.02007
767.0,0.01930
768.0,0.01940
769.0,0.02043
770.0,0.02130
771.0,0.01735
772.0,0.01997
773.0,0.01543
774.0,0.02078
775.0,0.02187
776.0,0.02049
777.0,0.02086
778.0,0.02177
779.0,0.01800
780.0,0.01928
781.0,0.02153
782.0,0.02301
783.0,0.02118
784.0,0.02766
785.0,0.01973
786.0,0.02300
787.0,0.02380
788.0,0.01960
789.0,0.01754
790.0,0.01645
791.0,0.02049
792.0,0.02333
793.0,0.02082
794.0,0.02052
795.0,0.01886
796.0,0.02168
797.0,0.01359
798.0,0.02070
799.0,0.02008
800.0,0.01589
